PE UV       SUBTECH     SPECTRUM    ASCII       PEDS        4.00        
   -1
SampleUG1.Sample.asc
11/01/16
03:47:21.00
11/01/16
03:47:21.00
PerkinElmer Method Developer

250.000000
1
Lambda 35
502S12111107
PerkinElmer UV WinLab 6.0.4.0738 / Lambda35 1.27

480
2
1
0
0
Both on
1
1
1
None
0
0
0
0
 
 
0
0
0
0
0
 
 
 
0
 
0
326
0
 
0
 
 
 
0
0
0
 
0
 
 
 
0
 
 
0
0
0
0
0
 
 
 
 
0
0


0
0
#HDR
-1
-1
#GR
nm
%T
1.0
0.0
900.000000
-1.000000
651
8
53.656869
-1.359053
#DATA
900.000000	0.014621
899.000000	0.053719
898.000000	0.048945
897.000000	0.171577
896.000000	0.014744
895.000000	0.123031
894.000000	0.142878
893.000000	-0.039522
892.000000	0.153648
891.000000	0.064571
890.000000	0.124347
889.000000	0.164728
888.000000	0.235153
887.000000	0.045129
886.000000	0.215842
885.000000	0.070493
884.000000	-0.010107
883.000000	0.020269
882.000000	0.177422
881.000000	0.214089
880.000000	0.137769
879.000000	0.056303
878.000000	0.005134
877.000000	-0.015424
876.000000	0.113666
875.000000	0.196799
874.000000	0.140129
873.000000	0.155868
872.000000	0.140735
871.000000	0.068006
870.000000	0.193738
869.000000	0.162892
868.000000	0.252658
867.000000	0.036924
866.000000	0.227658
865.000000	0.148447
864.000000	0.170086
863.000000	0.218573
862.000000	0.144046
861.000000	0.122981
860.000000	0.042891
859.000000	0.257580
858.000000	0.139845
857.000000	0.210583
856.000000	0.048630
855.000000	0.157028
854.000000	0.097587
853.000000	0.092331
852.000000	0.136121
851.000000	0.185165
850.000000	0.207401
849.000000	0.256887
848.000000	0.175045
847.000000	0.252234
846.000000	0.219575
845.000000	0.236394
844.000000	0.280543
843.000000	0.259439
842.000000	0.407961
841.000000	0.270449
840.000000	0.187773
839.000000	0.310078
838.000000	0.392829
837.000000	0.254876
836.000000	0.382865
835.000000	0.433550
834.000000	0.389170
833.000000	0.461162
832.000000	0.400623
831.000000	0.568182
830.000000	0.451002
829.000000	0.484653
828.000000	0.484896
827.000000	0.517443
826.000000	0.552209
825.000000	0.590924
824.000000	0.702419
823.000000	0.618453
822.000000	0.597098
821.000000	0.802363
820.000000	0.724961
819.000000	0.757829
818.000000	0.829945
817.000000	0.924791
816.000000	1.050993
815.000000	0.896287
814.000000	0.967580
813.000000	0.938837
812.000000	1.067022
811.000000	1.104880
810.000000	1.199667
809.000000	1.215586
808.000000	1.340200
807.000000	1.463577
806.000000	1.411491
805.000000	1.449275
804.000000	1.642608
803.000000	1.448554
802.000000	1.580984
801.000000	1.638892
800.000000	1.743641
799.000000	1.752742
798.000000	1.890015
797.000000	2.118644
796.000000	2.044181
795.000000	2.119831
794.000000	2.190142
793.000000	2.220273
792.000000	2.263634
791.000000	2.372343
790.000000	2.374439
789.000000	2.475410
788.000000	2.549962
787.000000	2.652838
786.000000	2.640048
785.000000	2.718161
784.000000	2.820429
783.000000	2.770520
782.000000	2.882785
781.000000	2.888008
780.000000	2.951389
779.000000	3.150076
778.000000	3.108049
777.000000	3.241895
776.000000	3.276824
775.000000	3.467489
774.000000	3.604626
773.000000	3.631360
772.000000	3.847605
771.000000	4.112834
770.000000	4.235965
769.000000	4.506345
768.000000	4.742700
767.000000	5.021752
766.000000	5.366063
765.000000	5.635993
764.000000	6.013626
763.000000	6.304278
762.000000	6.624572
761.000000	6.890639
760.000000	7.359400
759.000000	7.654479
758.000000	8.002776
757.000000	8.254188
756.000000	8.608000
755.000000	8.854417
754.000000	9.072033
753.000000	9.239940
752.000000	9.434364
751.000000	9.544076
750.000000	9.642971
749.000000	9.649822
748.000000	9.555426
747.000000	9.603740
746.000000	9.426948
745.000000	9.207175
744.000000	9.019088
743.000000	8.848806
742.000000	8.547643
741.000000	8.233049
740.000000	7.916910
739.000000	7.521069
738.000000	7.206778
737.000000	6.739015
736.000000	6.391993
735.000000	5.953641
734.000000	5.591443
733.000000	5.265665
732.000000	4.854163
731.000000	4.517323
730.000000	4.120821
729.000000	3.835776
728.000000	3.561035
727.000000	3.285714
726.000000	3.058363
725.000000	2.747195
724.000000	2.482795
723.000000	2.253372
722.000000	2.021378
721.000000	1.799132
720.000000	1.535936
719.000000	1.366164
718.000000	1.208203
717.000000	0.996132
716.000000	0.832229
715.000000	0.672919
714.000000	0.551402
713.000000	0.445576
712.000000	0.334093
711.000000	0.260140
710.000000	0.180324
709.000000	0.143343
708.000000	0.100865
707.000000	0.095618
706.000000	0.026570
705.000000	0.010633
704.000000	0.010631
703.000000	0.021274
702.000000	-0.015946
701.000000	0.010638
700.000000	0.010639
699.000000	0.015974
698.000000	-0.063891
697.000000	-0.010655
696.000000	-0.042623
695.000000	0.015981
694.000000	-0.015996
693.000000	0.000000
692.000000	0.005333
691.000000	-0.010675
690.000000	0.021361
689.000000	0.010685
688.000000	-0.005341
687.000000	0.010694
686.000000	-0.010689
685.000000	-0.037433
684.000000	-0.064195
683.000000	-0.090749
682.000000	0.042758
681.000000	-0.096128
680.000000	0.016038
679.000000	-0.032082
678.000000	-0.026738
677.000000	-0.112168
676.000000	0.090817
675.000000	-0.139052
674.000000	-0.042792
673.000000	-0.074762
672.000000	0.053433
671.000000	0.000000
670.000000	-0.069511
669.000000	-0.058770
668.000000	-0.016037
667.000000	-0.085543
666.000000	-0.005338
665.000000	-0.010684
664.000000	-0.160205
663.000000	0.010673
662.000000	0.010684
661.000000	0.074726
660.000000	-0.042699
659.000000	-0.106718
658.000000	-0.042678
657.000000	-0.074631
656.000000	-0.010658
655.000000	-0.031966
654.000000	0.010653
653.000000	0.005325
652.000000	0.074452
651.000000	-0.095770
650.000000	-0.031925
649.000000	0.101069
648.000000	-0.079825
647.000000	-0.026592
646.000000	-0.021289
645.000000	-0.101010
644.000000	0.000000
643.000000	-0.079719
642.000000	-0.021255
641.000000	0.026560
640.000000	-0.063698
639.000000	-0.005310
638.000000	-0.005304
637.000000	-0.031820
636.000000	-0.010621
635.000000	-0.148604
634.000000	0.005307
633.000000	-0.079584
632.000000	0.005308
631.000000	-0.106101
630.000000	0.000000
629.000000	-0.026524
628.000000	-0.015920
627.000000	-0.026515
626.000000	-0.021227
625.000000	-0.042434
624.000000	0.000000
623.000000	0.010617
622.000000	-0.010618
621.000000	-0.042445
620.000000	0.037145
619.000000	-0.079584
618.000000	-0.037143
617.000000	-0.090243
616.000000	0.000000
615.000000	-0.047766
614.000000	0.010617
613.000000	-0.010621
612.000000	-0.042452
611.000000	-0.021210
610.000000	0.058312
609.000000	-0.005307
608.000000	-0.037141
607.000000	0.000000
606.000000	-0.005305
605.000000	-0.010619
604.000000	0.021234
603.000000	-0.015935
602.000000	-0.031859
601.000000	0.047804
600.000000	-0.037173
599.000000	0.026579
598.000000	-0.042517
597.000000	0.021271
596.000000	-0.085088
595.000000	0.000000
594.000000	0.015984
593.000000	-0.026670
592.000000	0.005340
591.000000	-0.005341
590.000000	-0.032074
589.000000	-0.026741
588.000000	-0.026801
587.000000	-0.032203
586.000000	-0.042944
585.000000	0.010747
584.000000	0.032305
583.000000	0.010778
582.000000	0.037775
581.000000	-0.070210
580.000000	-0.075659
579.000000	0.043260
578.000000	-0.010831
577.000000	-0.054151
576.000000	-0.021681
575.000000	-0.065027
574.000000	-0.054251
573.000000	-0.081446
572.000000	-0.097720
571.000000	-0.065235
570.000000	-0.087075
569.000000	-0.016346
568.000000	-0.054445
567.000000	0.038145
566.000000	-0.010910
565.000000	0.000000
564.000000	-0.049105
563.000000	-0.054621
562.000000	-0.098404
561.000000	-0.093003
560.000000	-0.087585
559.000000	-0.043804
558.000000	-0.043874
557.000000	-0.016472
556.000000	-0.071354
555.000000	0.049456
554.000000	-0.093448
553.000000	0.000000
552.000000	-0.016489
551.000000	-0.049505
550.000000	-0.060599
549.000000	-0.099163
548.000000	-0.016548
547.000000	-0.099332
546.000000	0.044143
545.000000	0.000000
544.000000	0.000000
543.000000	0.011052
542.000000	-0.077382
541.000000	0.000000
540.000000	-0.022142
539.000000	0.005546
538.000000	-0.038861
537.000000	0.016645
536.000000	-0.027769
535.000000	-0.005556
534.000000	-0.044524
533.000000	-0.027830
532.000000	-0.039015
531.000000	-0.016734
530.000000	0.000000
529.000000	-0.089390
528.000000	0.005598
527.000000	0.055994
526.000000	-0.106538
525.000000	-0.011225
524.000000	-0.033691
523.000000	-0.056268
522.000000	0.000000
521.000000	-0.073330
520.000000	0.056462
519.000000	0.016947
518.000000	-0.090564
517.000000	-0.039640
516.000000	-0.011346
515.000000	-0.056812
514.000000	0.005693
513.000000	-0.005697
512.000000	-0.005699
511.000000	0.028555
510.000000	-0.017155
509.000000	0.011455
508.000000	-0.063164
507.000000	0.034483
506.000000	-0.011504
505.000000	0.046157
504.000000	-0.052026
503.000000	-0.046355
502.000000	-0.150873
501.000000	-0.058069
500.000000	-0.046568
499.000000	-0.058329
498.000000	-0.035080
497.000000	-0.076090
496.000000	-0.093803
495.000000	-0.035265
494.000000	-0.117827
493.000000	0.011795
492.000000	-0.023663
491.000000	0.047495
490.000000	-0.047531
489.000000	0.059616
488.000000	0.011944
487.000000	0.000000
486.000000	-0.066070
485.000000	0.012056
484.000000	0.006038
483.000000	-0.012116
482.000000	0.018226
481.000000	-0.006093
480.000000	-0.036704
479.000000	0.018386
478.000000	0.006148
477.000000	-0.135802
476.000000	-0.148542
475.000000	-0.124116
474.000000	-0.087244
473.000000	0.018777
472.000000	-0.094038
471.000000	0.000000
470.000000	-0.012641
469.000000	-0.139514
468.000000	-0.146432
467.000000	-0.012757
466.000000	-0.019211
465.000000	-0.102960
464.000000	-0.232318
463.000000	-0.135834
462.000000	-0.084575
461.000000	-0.097745
460.000000	-0.052518
459.000000	-0.072250
458.000000	-0.039588
457.000000	-0.171924
456.000000	0.026560
455.000000	-0.113469
454.000000	-0.033443
453.000000	0.006739
452.000000	0.053992
451.000000	-0.040620
450.000000	-0.156165
449.000000	0.000000
448.000000	-0.041099
447.000000	0.061971
446.000000	-0.103405
445.000000	0.055590
444.000000	-0.111732
443.000000	-0.084234
442.000000	0.042391
441.000000	-0.056717
440.000000	-0.128132
439.000000	-0.121838
438.000000	-0.187441
437.000000	-0.290255
436.000000	-0.101944
435.000000	-0.007323
434.000000	0.102987
433.000000	-0.259702
432.000000	-0.134519
431.000000	0.097378
430.000000	-0.022677
429.000000	-0.045572
428.000000	0.045749
427.000000	-0.129989
426.000000	-0.100154
425.000000	-0.123973
424.000000	-0.093582
423.000000	-0.423496
422.000000	-0.142270
421.000000	0.007921
420.000000	-0.103511
419.000000	-0.024002
418.000000	-0.040151
417.000000	-0.080795
416.000000	-0.056804
415.000000	0.057078
414.000000	0.032816
413.000000	-0.016485
412.000000	-0.016574
411.000000	-0.116599
410.000000	-0.050239
409.000000	0.000000
408.000000	0.033835
407.000000	0.008500
406.000000	-0.042742
405.000000	0.000000
404.000000	0.069049
403.000000	-0.043380
402.000000	-0.069711
401.000000	0.157687
400.000000	0.238369
399.000000	0.195001
398.000000	0.374198
397.000000	0.582489
396.000000	0.962923
395.000000	1.512407
394.000000	2.372512
393.000000	2.919908
392.000000	4.084455
391.000000	5.368255
390.000000	6.830907
389.000000	8.718911
388.000000	10.536254
387.000000	12.719673
386.000000	15.105308
385.000000	16.721629
384.000000	19.655681
383.000000	18.350184
382.000000	26.648815
381.000000	27.142145
380.000000	30.452471
379.000000	31.830958
378.000000	36.661912
377.000000	37.177951
376.000000	38.899585
375.000000	40.813835
374.000000	42.133964
373.000000	44.352073
372.000000	47.283360
371.000000	47.057576
370.000000	49.228957
369.000000	49.967908
368.000000	50.307344
367.000000	50.547525
366.000000	51.454506
365.000000	51.495017
364.000000	51.899721
363.000000	52.570723
362.000000	53.656869
361.000000	53.451450
360.000000	50.802016
359.000000	52.249135
358.000000	52.620422
357.000000	52.212806
356.000000	51.215463
355.000000	50.857481
354.000000	48.637118
353.000000	50.060372
352.000000	49.826260
351.000000	48.489628
350.000000	45.867971
349.000000	47.795023
348.000000	45.418127
347.000000	44.744782
346.000000	44.214666
345.000000	41.719343
344.000000	42.653297
343.000000	41.457158
342.000000	40.464933
341.000000	40.018339
340.000000	36.031434
339.000000	37.194149
338.000000	34.312558
337.000000	33.941019
336.000000	31.928191
335.000000	29.913160
334.000000	29.383692
333.000000	31.934861
332.000000	27.652601
331.000000	24.801206
330.000000	23.354984
329.000000	24.199637
328.000000	23.010004
327.000000	18.042336
326.000000	18.474391
325.000000	17.130267
324.000000	17.168464
323.000000	14.655893
322.000000	13.164593
321.000000	12.064571
320.000000	10.986833
319.000000	10.645300
318.000000	9.723229
317.000000	8.196004
316.000000	7.189062
315.000000	5.843097
314.000000	4.704301
313.000000	3.842097
312.000000	3.505843
311.000000	2.165354
310.000000	3.040074
309.000000	2.733591
308.000000	0.405174
307.000000	1.431943
306.000000	1.311009
305.000000	0.496477
304.000000	0.338928
303.000000	0.163292
302.000000	-0.362080
301.000000	0.267023
300.000000	-0.033557
299.000000	-0.152931
298.000000	-0.759406
297.000000	-0.314630
296.000000	-0.406002
295.000000	0.160285
294.000000	-0.465283
293.000000	-0.382862
292.000000	-0.697760
291.000000	-0.635277
290.000000	-0.621469
289.000000	0.230105
288.000000	-0.038161
287.000000	-0.453918
286.000000	0.277943
285.000000	-0.120579
284.000000	-0.203707
283.000000	-0.918555
282.000000	-0.414594
281.000000	-0.063640
280.000000	-0.406330
279.000000	-0.946847
278.000000	-0.564604
277.000000	-1.359053
276.000000	-0.613631
275.000000	-0.177305
274.000000	0.246140
273.000000	-0.448833
272.000000	-0.794011
271.000000	-0.685088
270.000000	-0.686970
269.000000	-0.825877
268.000000	-0.973574
267.000000	-0.486449
266.000000	-0.419874
265.000000	-0.703730
264.000000	-0.497159
263.000000	-0.708215
262.000000	-0.215466
261.000000	0.216763
260.000000	-0.974421
259.000000	-0.542005
258.000000	-0.446097
257.000000	-0.601052
256.000000	-0.805842
255.000000	-0.305810
254.000000	-0.258532
253.000000	-0.728787
252.000000	-0.343008
251.000000	-0.561197
250.000000	-0.492072
